sinal
""
215.0
214.66666666666669
214.33333333333331
214.0
213.66666666666669
213.33333333333331
213.0
212.5
212.0
211.5
211.0
211.33333333333331
211.66666666666669
212.0
221.66666666666666
231.33333333333334
241.0
256.0
256.66666666666663
257.33333333333337
258.0
242.33333333333334
226.66666666666666
211.0
209.33333333333331
207.66666666666669
206.0
210.0
211.33333333333331
212.66666666666669
214.0
214.0
214.0
214.0
214.0
213.66666666666669
213.33333333333331
213.0
213.66666666666669
214.33333333333331
215.0
215.33333333333331
215.66666666666669
216.0
215.66666666666669
215.33333333333331
215.0
215.0
215.0
215.0
215.0
215.0
215.0
215.0
215.0
215.0
215.33333333333331
215.66666666666669
216.0
216.66666666666669
217.33333333333331
218.0
218.0
218.0
218.0
218.0
218.33333333333331
218.66666666666669
219.0
219.66666666666666
220.33333333333334
221.0
222.0
223.0
224.0
225.0
226.0
227.0
228.0
229.0
230.0
231.0
232.0
233.0
233.66666666666666
234.33333333333334
235.0
235.66666666666666
236.33333333333334
237.0
237.0
237.0
237.0
236.0
235.0
234.0
233.0
232.0
231.0
230.0
229.0
228.0
227.0
226.0
225.0
224.0
223.0
222.33333333333334
221.66666666666666
221.0
220.66666666666666
220.33333333333334
220.0
219.33333333333334
218.66666666666669
218.0
217.66666666666669
217.33333333333331
217.0
217.33333333333331
217.66666666666669
218.0
218.0
218.0
218.0
218.0
218.0
218.0
218.33333333333331
218.66666666666669
219.0
219.0
219.0
219.0
218.66666666666669
218.33333333333331
218.0
218.33333333333331
218.66666666666669
219.0
219.33333333333334
219.66666666666666
220.0
220.0
220.0
220.0
220.0
220.0
220.0
220.0
220.0
220.0
220.0
220.0
220.0
220.0
219.66666666666666
219.33333333333334
219.0
218.66666666666669
218.33333333333331
218.0
218.33333333333331
218.66666666666669
219.0
218.66666666666669
218.33333333333331
218.0
218.0
218.0
218.33333333333331
218.66666666666669
219.0
218.66666666666669
218.33333333333331
218.0
218.66666666666669
219.33333333333334
220.0
220.66666666666666
221.33333333333334
222.0
223.33333333333334
224.66666666666666
226.0
227.0
228.0
229.0
230.0
231.0
232.0
232.0
232.0
232.0
231.0
230.0
229.0
228.0
227.0
226.0
224.66666666666666
223.33333333333334
222.0
220.0
218.0
217.0
216.0
215.0
215.0
215.0
214.66666666666669
214.33333333333331
214.0
214.0
214.0
214.0
214.0
214.0
214.0
212.0
211.0
210.0
209.0
210.0
211.0
212.0
220.66666666666666
229.33333333333334
238.0
251.0
251.33333333333334
251.66666666666666
252.0
238.33333333333334
224.66666666666666
211.0
208.33333333333331
205.66666666666669
203.0
207.0
211.0
212.0
213.0
214.0
214.0
214.0
214.0
214.0
214.0
214.0
214.0
214.0
214.0
214.0
214.0
214.0
214.33333333333331
214.66666666666669
215.0
215.5
216.0
216.0
216.0
215.33333333333331
214.66666666666669
214.0
214.33333333333331
214.66666666666669
215.0
216.0
217.0
217.0
217.0
217.0
217.33333333333331
217.66666666666669
218.0
219.0
220.0
220.33333333333334
220.66666666666666
221.0
221.33333333333334
221.66666666666666
222.0
223.33333333333334
224.66666666666666
226.0
227.5
229.0
229.0
229.0
229.0
230.0
231.0
232.0
233.0
234.33333333333334
235.66666666666666
237.0
236.66666666666666
236.33333333333334
236.0
236.0
236.0
236.0
235.33333333333334
234.66666666666666
234.0
232.0
230.0
228.0
226.0
225.33333333333334
224.66666666666666
224.0
223.33333333333334
222.66666666666666
222.0
221.33333333333334
220.66666666666666
220.0
219.33333333333334
218.66666666666669
218.0
217.0
217.0
217.0
217.0
218.0
218.0
218.0
218.0
217.5
217.0
217.5
218.0
218.0
218.0
218.0
218.0
218.0
218.0
218.0
218.33333333333331
218.66666666666669
219.0
219.33333333333334
219.66666666666666
220.0
220.0
220.0
220.0
220.33333333333334
220.66666666666666
221.0
221.0
221.0
221.0
221.0
221.0
220.66666666666666
220.33333333333334
220.0
219.66666666666666
219.33333333333334
219.0
219.0
219.0
219.33333333333334
219.66666666666666
220.0
220.33333333333334
220.66666666666666
221.0
220.66666666666666
220.33333333333334
220.0
219.66666666666666
219.33333333333334
219.0
219.5
220.0
220.33333333333334
220.66666666666666
221.0
220.66666666666666
220.33333333333334
220.0
220.33333333333334
220.66666666666666
221.0
222.5
224.0
225.5
227.0
227.66666666666666
228.33333333333334
229.0
229.66666666666666
230.33333333333334
231.0
231.66666666666666
232.33333333333334
233.0
233.66666666666666
234.33333333333334
235.0
234.0
233.0
232.0
230.33333333333334
228.66666666666666
227.0
225.66666666666666
224.33333333333334
223.0
221.66666666666666
220.33333333333334
219.0
218.33333333333331
217.66666666666669
217.0
217.0
217.0
217.0
217.0
217.0
217.0
217.0
216.66666666666669
216.33333333333331
216.0
214.33333333333331
212.66666666666669
211.0
212.66666666666669
214.33333333333331
216.0
228.66666666666666
241.33333333333334
254.0
257.33333333333337
260.66666666666663
264.0
250.0
235.0
220.0
205.0
206.66666666666669
208.33333333333331
210.0
214.0
215.0
216.0
217.0
216.33333333333331
215.66666666666669
215.0
215.5
216.0
216.33333333333331
216.66666666666669
217.0
217.0
217.0
217.0
217.0
217.0
217.0
217.0
217.0
217.0
217.0
217.0
217.33333333333331
217.66666666666669
218.0
218.0
218.0
218.0
218.33333333333331
218.66666666666669
219.0
219.66666666666666
220.33333333333334
221.0
220.5
220.0
219.66666666666666
219.33333333333334
219.0
220.0
221.0
222.0
223.0
224.0
224.66666666666666
225.33333333333334
226.0
227.33333333333334
228.66666666666666
230.0
231.33333333333334
232.66666666666666
234.0
235.5
237.0
237.5
238.0
238.5
239.0
239.5
240.0
239.33333333333334
238.66666666666666
238.0
237.5
237.0
236.0
235.0
234.33333333333334
233.66666666666666
233.0
232.0
231.0
230.0
229.0
228.0
227.0
226.0
225.0
224.0
223.33333333333334
222.66666666666666
222.0
221.66666666666666
221.33333333333334
221.0
220.33333333333334
219.66666666666666
219.0
219.5
220.0
220.33333333333334
220.66666666666666
221.0
221.0
221.0
221.0
221.0
221.33333333333334
221.66666666666666
222.0
221.0
220.0
219.0
218.0
218.0
218.0
218.0
218.66666666666669
219.33333333333334
220.0
220.0
220.0
220.0
220.33333333333334
220.66666666666666
221.0
221.0
221.0
221.0
221.0
221.0
221.0
221.0
221.0
221.0
221.0
221.0
221.0
221.33333333333334
221.66666666666666
222.0
221.66666666666666
221.33333333333334
221.0
220.66666666666666
220.33333333333334
220.0
219.66666666666666
219.33333333333334
219.0
218.66666666666669
218.33333333333331
218.0
218.5
219.0
219.5
220.0
220.5
221.0
221.66666666666666
222.33333333333334
223.0
224.0
224.66666666666666
225.33333333333334
226.0
226.66666666666666
227.33333333333334
228.0
229.0
230.0
231.0
232.0
232.33333333333334
232.66666666666666
233.0
233.0
232.66666666666666
232.33333333333334
232.0
229.66666666666666
227.33333333333334
225.0
223.0
221.33333333333334
219.66666666666666
218.0
217.66666666666669
217.33333333333331
217.0
217.0
216.66666666666669
216.33333333333331
216.0
215.66666666666669
215.33333333333331
215.0
215.0
215.0
214.33333333333331
213.66666666666669
213.0
211.0
209.0
210.0
211.0
212.0
222.0
232.0
242.0
257.0
260.33333333333337
263.66666666666663
267.0
252.0
236.0
220.0
204.0
204.66666666666669
205.33333333333331
206.0
210.5
215.0
215.33333333333331
215.66666666666669
216.0
215.33333333333331
214.66666666666669
214.0
213.0
213.0
213.0
213.0
213.66666666666669
214.33333333333331
215.0
215.33333333333331
215.66666666666669
216.0
215.66666666666669
215.33333333333331
215.0
215.0
215.0
215.33333333333331
215.66666666666669
216.0
216.33333333333331
216.66666666666669
217.0
217.33333333333331
217.66666666666669
218.0
218.0
218.0
218.0
218.66666666666669
219.33333333333334
220.0
220.66666666666666
221.33333333333334
222.0
222.0
222.0
222.0
222.33333333333334
222.66666666666666
223.0
224.5
226.0
227.66666666666666
229.33333333333334
231.0
231.66666666666666
232.33333333333334
233.0
233.66666666666666
234.33333333333334
235.0
236.0
237.0
238.0
239.0
239.0
239.0
239.0
238.0
237.0
236.0
235.0
234.0
233.0
231.66666666666666
230.33333333333334
229.0
227.0
225.0
224.0
223.0
222.0
222.0
222.0
221.66666666666666
221.33333333333334
221.0
220.5
220.0
219.5
219.0
218.66666666666669
218.33333333333331
218.0
218.0
218.0
218.0
218.0
218.0
217.66666666666669
217.33333333333331
217.0
217.33333333333331
217.66666666666669
218.0
218.33333333333331
218.66666666666669
219.0
219.0
219.0
219.0
219.0
219.66666666666666
220.33333333333334
221.0
221.0
221.0
221.0
221.0
220.33333333333334
219.66666666666666
219.0
218.33333333333331
217.66666666666669
217.0
217.5
218.0
218.5
219.0
219.33333333333334
219.66666666666666
220.0
220.33333333333334
220.66666666666666
221.0
221.0
221.0
221.0
220.66666666666666
220.33333333333334
220.0
220.0
220.0
220.0
219.66666666666666
219.33333333333334
219.0
219.0
219.0
219.0
219.0
219.0
219.0
219.33333333333334
219.66666666666666
220.0
220.0
220.0
219.66666666666666
219.33333333333334
219.0
219.0
219.0
219.0
219.33333333333334
219.66666666666666
220.0
220.5
221.0
221.5
222.0
222.66666666666666
223.33333333333334
224.0
224.66666666666666
225.33333333333334
226.0
227.0
228.33333333333334
229.66666666666666
231.0
232.0
232.0
232.0
232.0
231.5
231.0
230.33333333333334
229.66666666666666
229.0
227.5
226.0
224.5
223.0
221.33333333333334
219.66666666666666
218.0
217.0
216.0
215.0
215.0
215.0
215.33333333333331
215.66666666666669
216.0
215.66666666666669
215.33333333333331
215.0
214.0
213.0
212.0
211.0
211.0
211.0
211.0
219.0
227.0
235.0
249.5
264.0
261.66666666666663
259.33333333333337
257.0
240.66666666666666
224.33333333333334
208.0
207.0
206.0
205.0
209.5
214.0
214.33333333333331
214.66666666666669
215.0
214.33333333333331
213.66666666666669
213.0
213.5
214.0
214.5
215.0
214.66666666666669
214.33333333333331
214.0
213.66666666666669
213.33333333333331
213.0
213.33333333333331
213.66666666666669
214.0
214.33333333333331
214.66666666666669
215.0
215.0
215.0
215.0
215.0
215.0
215.0
215.33333333333331
215.66666666666669
216.0
216.33333333333331
216.66666666666669
217.0
217.66666666666669
218.33333333333331
219.0
220.0
220.33333333333334
220.66666666666666
221.0
221.33333333333334
221.66666666666666
222.0
223.33333333333334
224.66666666666666
226.0
226.66666666666666
227.33333333333334
228.0
229.33333333333334
230.66666666666666
232.0
233.0
234.0
235.0
235.33333333333334
235.66666666666666
236.0
236.33333333333334
236.66666666666666
237.0
237.0
237.0
237.0
236.33333333333334
235.66666666666666
235.0
234.0
233.0
232.0
231.0
230.0
228.66666666666666
227.33333333333334
226.0
225.33333333333334
224.66666666666666
224.0
223.5
223.0
222.5
222.0
221.0
220.0
219.66666666666666
219.33333333333334
219.0
219.0
219.33333333333334
219.66666666666666
220.0
220.0
220.0
220.0
220.0
220.0
220.0
220.33333333333334
220.66666666666666
221.0
221.0
221.0
221.0
221.0
220.66666666666666
220.33333333333334
220.0
220.0
220.33333333333334
220.66666666666666
221.0
221.33333333333334
221.66666666666666
222.0
222.0
222.0
222.0
222.0
222.0
221.66666666666666
221.33333333333334
221.0
221.0
221.0
221.33333333333334
221.66666666666666
222.0
221.66666666666666
221.33333333333334
221.0
221.0
221.0
221.0
221.0
221.0
221.0
221.0
221.0
220.66666666666666
220.33333333333334
220.0
220.0
220.0
220.0
220.0
220.0
220.0
220.0
220.33333333333334
220.66666666666666
221.0
220.66666666666666
220.33333333333334
220.0
220.0
220.0
220.0
220.0
220.0
220.0
220.0
220.33333333333334
220.66666666666666
221.0
222.0
223.0
224.33333333333334
225.66666666666666
227.0
227.66666666666666
228.33333333333334
229.0
230.0
231.0
232.0
232.0
232.0
232.0
231.66666666666666
231.33333333333334
231.0
230.66666666666666
230.33333333333334
230.0
228.33333333333334
226.66666666666666
225.0
223.66666666666666
222.33333333333334
221.0
220.0
219.0
218.0
217.66666666666669
217.33333333333331
217.0
216.66666666666669
216.33333333333331
216.0
216.0
215.66666666666669
215.33333333333331
215.0
214.0
213.0
211.66666666666669
210.33333333333331
209.0
211.0
213.0
215.0
226.0
237.0
248.0
263.0
264.33333333333337
265.66666666666663
267.0
249.33333333333334
231.66666666666666
214.0
210.66666666666669
207.33333333333331
204.0
207.66666666666669
211.33333333333331
215.0
215.0
215.0
215.0
214.0
213.0
213.0
213.0
213.0
213.0
213.0
213.0
212.66666666666669
212.33333333333331
212.0
212.5
213.0
213.33333333333331
213.66666666666669
214.0
214.0
214.0
214.0
214.0
213.66666666666669
213.33333333333331
213.0
213.33333333333331
213.66666666666669
214.0
215.0
216.0
217.0
217.66666666666669
218.33333333333331
219.0
219.0
219.0
219.0
219.66666666666666
220.33333333333334
221.0
221.33333333333334
221.66666666666666
222.0
223.0
224.0
225.0
226.0
227.33333333333334
228.66666666666666
230.0
231.0
232.0
233.0
233.33333333333334
233.66666666666666
234.0
234.33333333333334
234.66666666666666
235.0
236.0
236.0
236.0
236.0
235.66666666666666
235.33333333333334
235.0
233.33333333333334
231.66666666666666
230.0
228.66666666666666
227.33333333333334
226.0
225.0
224.0
223.0
222.0
221.0
221.0
220.66666666666666
220.33333333333334
220.0
219.33333333333334
218.66666666666669
218.0
217.66666666666669
217.33333333333331
217.0
217.33333333333331
217.66666666666669
218.0
218.0
218.0
218.0
218.0
218.0
218.0
218.0
218.0
218.0
218.0
218.0
218.0
218.0
218.0
218.0
218.0
218.0
218.0
218.0
218.0
218.0
218.0
217.66666666666669
217.33333333333331
217.0
217.0
217.66666666666669
218.33333333333331
219.0
218.66666666666669
218.33333333333331
218.0
217.66666666666669
217.33333333333331
217.0
217.33333333333331
217.66666666666669
218.0
218.0
218.0
218.0
218.0
218.0
217.66666666666669
217.33333333333331
217.0
216.66666666666669
216.33333333333331
216.0
216.0
216.0
216.0
216.0
216.0
216.33333333333331
216.66666666666669
217.0
217.0
217.0
217.0
217.66666666666669
218.33333333333331
219.0
219.66666666666666
220.33333333333334
221.0
221.66666666666666
222.33333333333334
223.0
223.66666666666666
224.33333333333334
225.0
225.66666666666666
226.33333333333334
227.0
227.5
228.0
228.5
229.0
229.5
230.0
230.5
231.0
230.33333333333334
229.66666666666666
229.0
227.33333333333334
225.66666666666666
224.0
222.33333333333334
220.66666666666666
219.0
218.33333333333331
217.66666666666669
217.0
216.5
216.0
215.66666666666669
215.33333333333331
215.0
214.66666666666669
214.33333333333331
214.0
214.0
213.33333333333331
212.66666666666669
212.0
210.5
209.0
209.33333333333331
209.66666666666669
210.0
217.0
224.0
231.0
243.5
256.0
254.33333333333334
252.66666666666666
251.0
237.0
223.0
209.0
208.0
207.0
206.0
211.0
212.66666666666669
214.33333333333331
216.0
215.66666666666669
215.33333333333331
215.0
214.66666666666669
214.33333333333331
214.0
214.66666666666669
215.33333333333331
216.0
216.33333333333331
216.66666666666669
217.0
216.66666666666669
216.33333333333331
216.0
215.66666666666669
215.33333333333331
215.0
215.66666666666669
216.33333333333331
217.0
217.33333333333331
217.66666666666669
218.0
217.66666666666669
217.33333333333331
217.0
217.66666666666669
218.33333333333331
219.0
219.33333333333334
219.66666666666666
220.0
220.0
220.33333333333334
220.66666666666666
221.0
221.66666666666666
222.33333333333334
223.0
223.66666666666666
224.33333333333334
225.0
226.0
227.0
228.33333333333334
229.66666666666666
231.0
232.0
233.0
234.0
234.66666666666666
235.33333333333334
236.0
236.66666666666666
237.33333333333334
238.0
238.0
238.0
238.0
237.66666666666666
237.33333333333334
237.0
237.0
237.0
236.0
235.0
234.0
232.0
230.33333333333334
228.66666666666666
227.0
225.5
224.0
223.66666666666666
223.33333333333334
223.0
222.66666666666666
222.33333333333334
222.0
221.66666666666666
221.33333333333334
221.0
220.66666666666666
220.33333333333334
220.0
220.0
220.0
220.0
220.0
220.33333333333334
220.66666666666666
221.0
221.0
221.0
220.66666666666666
220.33333333333334
220.0
219.66666666666666
219.33333333333334
219.0
219.0
219.33333333333334
219.66666666666666
220.0
220.33333333333334
220.66666666666666
221.0
221.0
221.0
221.0
221.0
221.0
221.0
221.0
221.0
221.0
221.0
221.0
221.0
221.0
221.0
221.0
221.0
221.0
220.66666666666666
220.33333333333334
220.0
220.0
220.33333333333334
220.66666666666666
221.0
221.0
221.0
221.0
221.0
220.66666666666666
220.33333333333334
220.0
219.66666666666666
219.33333333333334
219.0
218.5
218.0
218.66666666666669
219.33333333333334
220.0
220.66666666666666
221.33333333333334
222.0
223.0
223.33333333333334
223.66666666666666
224.0
225.0
226.0
227.0
228.33333333333334
229.66666666666666
231.0
231.33333333333334
231.66666666666666
232.0
232.0
231.0
230.0
229.0
227.0
225.0
223.0
221.0
219.0
218.33333333333331
217.66666666666669
217.0
217.0
217.0
216.33333333333331
215.66666666666669
215.0
214.33333333333331
213.66666666666669
213.0
213.33333333333331
213.66666666666669
214.0
213.33333333333331
212.66666666666669
212.0
209.0
208.66666666666669
208.33333333333331
208.0
212.66666666666669
217.33333333333331
222.0
235.0
248.0
261.0
257.66666666666663
254.33333333333334
251.0
236.33333333333334
221.66666666666666
207.0
205.66666666666669
204.33333333333331
203.0
207.5
212.0
213.0
214.0
215.0
214.33333333333331
213.66666666666669
213.0
213.0
213.0
213.0
214.0
214.33333333333331
214.66666666666669
215.0
214.33333333333331
213.66666666666669
213.0
213.5
214.0
214.66666666666669
215.33333333333331
216.0
216.5
217.0
217.0
217.0
217.0
217.33333333333331
217.66666666666669
218.0
218.33333333333331
218.66666666666669
219.0
219.33333333333334
219.66666666666666
220.0
220.33333333333334
220.66666666666666
221.0
221.0
221.0
222.0
223.0
224.0
225.0
225.33333333333334
225.66666666666666
226.0
226.66666666666666
227.33333333333334
228.0
229.5
231.0
232.5
234.0
234.66666666666666
235.33333333333334
236.0
236.66666666666666
237.33333333333334
238.0
238.5
239.0
238.33333333333334
237.66666666666666
237.0
236.0
235.0
234.0
232.66666666666666
231.33333333333334
230.0
228.66666666666666
227.33333333333334
226.0
225.0
224.0
223.0
222.5
222.0
221.66666666666666
221.33333333333334
221.0
220.66666666666666
220.33333333333334
220.0
219.66666666666666
219.33333333333334
219.0
219.33333333333334
219.66666666666666
220.0
219.66666666666666
219.33333333333334
219.0
218.66666666666669
218.33333333333331
218.0
218.0
218.33333333333331
218.66666666666669
219.0
219.33333333333334
219.66666666666666
220.0
220.0
220.0
220.0
219.66666666666666
219.33333333333334
219.0
219.33333333333334
219.66666666666666
220.0
220.0
220.0
220.0
220.0
220.0
220.0
220.0
220.0
220.33333333333334
220.66666666666666
221.0
221.33333333333334
221.66666666666666
222.0
221.5
221.0
220.5
220.0
219.66666666666666
219.33333333333334
219.0
218.66666666666669
218.33333333333331
218.0
218.0
218.33333333333331
218.66666666666669
219.0
218.66666666666669
218.33333333333331
218.0
218.33333333333331
218.66666666666669
219.0
219.0
219.0
219.0
219.0
219.0
219.66666666666666
220.33333333333334
221.0
222.0
223.0
224.0
225.0
226.0
226.66666666666666
227.33333333333334
228.0
229.0
230.0
231.0
232.0
231.66666666666666
231.33333333333334
231.0
230.0
229.0
228.0
227.0
225.66666666666666
224.33333333333334
223.0
221.66666666666666
220.33333333333334
219.0
217.5
216.0
215.5
215.0
214.66666666666669
214.33333333333331
214.0
213.5
213.0
213.5
214.0
214.5
215.0
214.0
213.0
212.0
209.0
210.66666666666669
212.33333333333331
214.0
225.33333333333334
236.66666666666666
248.0
262.0
262.33333333333337
262.66666666666663
263.0
246.0
229.0
212.0
209.33333333333331
206.66666666666669
204.0
208.5
213.0
214.0
215.0
216.0
215.5
215.0
214.5
214.0
213.5
213.0
213.33333333333331
213.66666666666669
214.0
214.5
215.0
215.66666666666669
216.33333333333331
217.0
216.66666666666669
216.33333333333331
216.0
215.66666666666669
215.33333333333331
215.0
215.5
216.0
216.5
217.0
217.33333333333331
217.66666666666669
218.0
218.0
217.66666666666669
217.33333333333331
217.0
217.33333333333331
217.66666666666669
218.0
218.66666666666669
219.33333333333334
220.0
220.66666666666666
221.33333333333334
222.0
222.66666666666666
223.33333333333334
224.0
225.0
226.0
227.0
228.33333333333334
229.66666666666666
231.0
232.0
233.0
234.0
235.0
236.0
237.0
237.33333333333334
237.66666666666666
238.0
238.0
238.0
238.0
237.66666666666666
237.33333333333334
237.0
236.33333333333334
235.66666666666666
235.0
233.5
232.0
230.5
229.0
227.33333333333334
225.66666666666666
224.0
223.33333333333334
222.66666666666666
222.0
221.66666666666666
221.33333333333334
221.0
220.66666666666666
220.33333333333334
220.0
219.5
219.0
218.66666666666669
218.33333333333331
218.0
218.0
218.0
218.0
218.0
218.0
218.33333333333331
218.66666666666669
219.0
219.33333333333334
219.66666666666666
220.0
219.66666666666666
219.33333333333334
219.0
219.0
219.33333333333334
219.66666666666666
220.0
219.66666666666666
219.33333333333334
219.0
218.66666666666669
218.33333333333331
218.0
218.33333333333331
218.66666666666669
219.0
219.33333333333334
219.66666666666666
220.0
220.0
220.0
220.0
220.0
220.0
219.66666666666666
219.33333333333334
219.0
219.0
219.33333333333334
219.66666666666666
220.0
219.66666666666666
219.33333333333334
219.0
219.0
219.33333333333334
219.66666666666666
220.0
220.0
220.0
220.0
220.0
220.0
219.66666666666666
219.33333333333334
219.0
219.0
219.0
219.0
219.0
219.0
219.0
220.0
221.0
222.0
222.66666666666666
223.33333333333334
224.0
224.5
225.0
226.33333333333334
227.66666666666666
229.0
230.0
230.0
230.0
230.0
229.5
229.0
""
""
""
""
""
""
""
""
""
""
""
""
""
""
""
""
""
""
""
""
""
""
""
""
""
""
""
""
""
""
""
""
""
""
""
""
""
""
""
""
""
""
""
""
""
""
""
""
""
""
""
""
""
""
""
""
""
""
""
""
""
""
""
""
""
""
""
""
""
""
""
""
""
""
""
""
""
""
""
""
""
""
""
""
""
""
""
""
""
""
""
""
""
""
""
""
""
""
""
""
""
""
""
""
""
""
""
""
""
""
""
""
""
""
""
""
""
""
""
""
""
""
""
""
""
""
""
""
""
""
""
""
""
""
""
""
""
""
""
""
""
""
""
""
""
""
""
""
""
""
""
""
""
""
""
""
""
""
""
""
""
""
""
""
""
""
""
""
""
""
""
""
""
""
""
""
""
""
""
""
""
""
""
""
""
""
""
""
""
""
""
""
""
""
""
""
""
""
""
""
""
""
""
""
""
""
""
""
""
""
""
""
""
""
