sinal
236.0
236.0
236.0
236.0
236.0
237.0
237.0
238.0
238.0
239.0
239.0
238.0
238.0
237.0
238.0
238.0
238.0
238.0
237.0
238.0
238.0
238.0
238.0
238.0
237.0
237.0
236.0
236.0
236.0
236.0
235.0
236.0
236.0
236.0
236.0
236.0
236.0
236.0
236.0
235.0
234.0
234.0
234.0
234.0
235.0
235.0
235.0
236.0
237.0
237.0
237.0
237.0
237.0
237.0
238.0
238.0
239.0
240.0
240.0
240.0
240.0
239.0
238.0
237.0
236.0
236.0
236.0
236.0
236.0
237.0
237.0
236.0
235.0
234.0
233.0
233.0
233.0
233.0
234.0
234.0
234.0
234.0
233.0
234.0
234.0
234.0
234.0
233.0
232.0
231.0
230.0
231.0
239.0
238.0
237.0
236.0
235.0
234.0
233.0
232.0
251.0
250.0
249.0
248.0
247.0
246.0
245.0
244.0
243.0
242.0
241.0
240.0
269.0
268.0
267.0
266.0
265.0
264.0
263.0
262.0
261.0
260.0
259.0
258.0
257.0
256.0
255.0
254.0
253.0
252.0
292.0
291.0
290.0
289.0
288.0
287.0
286.0
285.0
284.0
283.0
282.0
281.0
280.0
279.0
278.0
277.0
276.0
275.0
274.0
273.0
272.0
271.0
270.0
304.0
303.0
302.0
301.0
300.0
299.0
298.0
297.0
296.0
295.0
294.0
293.0
306.0
305.0
331.0
330.0
329.0
328.0
327.0
326.0
325.0
324.0
323.0
322.0
321.0
320.0
319.0
318.0
317.0
316.0
315.0
314.0
313.0
312.0
311.0
310.0
309.0
308.0
307.0
306.0
305.0
304.0
303.0
302.0
301.0
300.0
299.0
298.0
297.0
296.0
295.0
294.0
293.0
292.0
291.0
290.0
289.0
288.0
287.0
286.0
285.0
284.0
283.0
282.0
281.0
280.0
279.0
278.0
277.0
276.0
275.0
274.0
273.0
272.0
271.0
270.0
269.0
268.0
267.0
266.0
265.0
264.0
263.0
262.0
261.0
260.0
259.0
258.0
257.0
256.0
255.0
254.0
253.0
252.0
251.0
250.0
249.0
248.0
247.0
246.0
245.0
244.0
243.0
242.0
241.0
240.0
239.0
238.0
237.0
236.0
235.0
234.0
233.0
232.0
231.0
230.0
229.0
228.0
227.0
226.0
225.0
224.0
223.0
222.0
221.0
220.0
219.0
218.0
217.0
216.0
215.0
214.0
213.0
212.0
211.0
210.0
209.0
208.0
207.0
206.0
205.0
204.0
203.0
202.0
201.0
200.0
199.0
198.0
197.0
196.0
195.0
194.0
193.0
192.0
191.0
190.0
189.0
188.0
187.0
186.0
185.0
184.0
183.0
182.0
181.0
180.0
179.0
178.0
177.0
176.0
175.0
174.0
173.0
172.0
171.0
170.0
169.0
168.0
167.0
166.0
165.0
156.0
155.0
154.0
153.0
152.0
151.0
150.0
149.0
148.0
147.0
146.0
165.0
164.0
163.0
162.0
161.0
160.0
159.0
158.0
157.0
145.0
144.0
143.0
142.0
172.0
171.0
170.0
169.0
168.0
167.0
166.0
193.0
192.0
191.0
190.0
189.0
188.0
187.0
186.0
185.0
184.0
183.0
182.0
181.0
180.0
179.0
178.0
177.0
176.0
175.0
174.0
173.0
211.0
210.0
209.0
208.0
207.0
206.0
205.0
204.0
203.0
202.0
201.0
200.0
199.0
198.0
197.0
196.0
195.0
194.0
222.0
221.0
220.0
219.0
218.0
217.0
216.0
215.0
214.0
213.0
212.0
229.0
228.0
227.0
226.0
225.0
224.0
223.0
231.0
230.0
232.0
233.0
234.0
234.0
234.0
234.0
234.0
234.0
234.0
235.0
236.0
236.0
237.0
237.0
237.0
237.0
237.0
237.0
238.0
238.0
239.0
240.0
240.0
240.0
240.0
240.0
240.0
240.0
240.0
241.0
241.0
242.0
243.0
244.0
245.0
246.0
247.0
247.0
248.0
249.0
250.0
251.0
253.0
252.0
255.0
254.0
256.0
257.0
259.0
258.0
261.0
260.0
263.0
262.0
264.0
265.0
267.0
266.0
268.0
269.0
269.0
269.0
269.0
269.0
269.0
270.0
270.0
270.0
269.0
268.0
267.0
266.0
265.0
264.0
263.0
262.0
261.0
260.0
259.0
258.0
257.0
256.0
255.0
254.0
253.0
252.0
251.0
250.0
249.0
248.0
247.0
246.0
245.0
244.0
243.0
242.0
241.0
240.0
240.0
239.0
239.0
239.0
239.0
239.0
239.0
238.0
238.0
238.0
237.0
237.0
237.0
237.0
237.0
237.0
237.0
238.0
238.0
238.0
238.0
238.0
238.0
239.0
239.0
239.0
238.0
238.0
238.0
238.0
239.0
239.0
239.0
239.0
239.0
239.0
239.0
238.0
239.0
239.0
239.0
239.0
239.0
239.0
239.0
239.0
239.0
238.0
238.0
238.0
237.0
237.0
237.0
237.0
237.0
236.0
237.0
237.0
237.0
237.0
237.0
236.0
236.0
236.0
236.0
236.0
235.0
235.0
235.0
235.0
235.0
236.0
236.0
237.0
237.0
238.0
238.0
238.0
239.0
239.0
239.0
240.0
240.0
241.0
241.0
240.0
240.0
239.0
239.0
238.0
238.0
238.0
238.0
237.0
236.0
236.0
236.0
236.0
236.0
235.0
235.0
235.0
235.0
235.0
235.0
235.0
234.0
233.0
233.0
233.0
233.0
233.0
233.0
233.0
232.0
231.0
231.0
230.0
229.0
228.0
227.0
233.0
232.0
245.0
244.0
243.0
242.0
241.0
240.0
239.0
238.0
237.0
236.0
235.0
234.0
262.0
261.0
260.0
259.0
258.0
257.0
256.0
255.0
254.0
253.0
252.0
251.0
250.0
249.0
248.0
247.0
246.0
284.0
283.0
282.0
281.0
280.0
279.0
278.0
277.0
276.0
275.0
274.0
273.0
272.0
271.0
270.0
269.0
268.0
267.0
266.0
265.0
264.0
263.0
287.0
286.0
285.0
288.0
334.0
333.0
332.0
331.0
330.0
329.0
328.0
327.0
326.0
325.0
324.0
323.0
322.0
321.0
320.0
319.0
318.0
317.0
316.0
315.0
314.0
313.0
312.0
311.0
310.0
309.0
308.0
307.0
306.0
305.0
304.0
303.0
302.0
301.0
300.0
299.0
298.0
297.0
296.0
295.0
294.0
293.0
292.0
291.0
290.0
289.0
288.0
287.0
286.0
285.0
284.0
283.0
282.0
281.0
280.0
279.0
278.0
277.0
276.0
275.0
274.0
273.0
272.0
271.0
270.0
269.0
268.0
267.0
266.0
265.0
264.0
263.0
262.0
261.0
260.0
259.0
258.0
257.0
256.0
255.0
254.0
253.0
252.0
251.0
250.0
249.0
248.0
247.0
246.0
245.0
244.0
243.0
242.0
241.0
240.0
239.0
238.0
237.0
236.0
235.0
234.0
233.0
232.0
231.0
230.0
229.0
228.0
227.0
226.0
225.0
224.0
223.0
222.0
221.0
220.0
219.0
218.0
217.0
216.0
215.0
214.0
213.0
212.0
211.0
210.0
209.0
208.0
207.0
206.0
205.0
204.0
203.0
202.0
201.0
200.0
199.0
198.0
197.0
196.0
195.0
194.0
193.0
192.0
191.0
190.0
189.0
188.0
187.0
186.0
185.0
184.0
183.0
182.0
181.0
180.0
179.0
178.0
177.0
176.0
175.0
174.0
173.0
172.0
171.0
170.0
169.0
168.0
167.0
166.0
166.0
165.0
164.0
163.0
162.0
161.0
160.0
159.0
158.0
157.0
156.0
155.0
154.0
153.0
152.0
151.0
150.0
149.0
148.0
147.0
146.0
145.0
144.0
167.0
188.0
187.0
186.0
185.0
184.0
183.0
182.0
181.0
180.0
179.0
178.0
177.0
176.0
175.0
174.0
173.0
172.0
171.0
170.0
169.0
168.0
205.0
204.0
203.0
202.0
201.0
200.0
199.0
198.0
197.0
196.0
195.0
194.0
193.0
192.0
191.0
190.0
189.0
219.0
218.0
217.0
216.0
215.0
214.0
213.0
212.0
211.0
210.0
209.0
208.0
207.0
206.0
227.0
226.0
225.0
224.0
223.0
222.0
221.0
220.0
230.0
229.0
228.0
232.0
231.0
233.0
233.0
234.0
234.0
234.0
234.0
235.0
236.0
236.0
236.0
237.0
237.0
237.0
237.0
238.0
239.0
239.0
239.0
238.0
238.0
238.0
238.0
238.0
239.0
240.0
240.0
240.0
239.0
239.0
240.0
240.0
241.0
242.0
243.0
244.0
244.0
244.0
245.0
247.0
246.0
248.0
248.0
249.0
249.0
252.0
251.0
250.0
255.0
254.0
253.0
257.0
256.0
258.0
259.0
261.0
260.0
262.0
262.0
263.0
265.0
264.0
267.0
266.0
268.0
268.0
269.0
269.0
269.0
269.0
268.0
267.0
266.0
265.0
264.0
263.0
262.0
261.0
260.0
259.0
258.0
257.0
256.0
255.0
254.0
253.0
252.0
251.0
250.0
249.0
248.0
247.0
246.0
245.0
244.0
243.0
242.0
241.0
241.0
240.0
240.0
240.0
240.0
239.0
239.0
239.0
239.0
239.0
239.0
239.0
238.0
238.0
238.0
237.0
237.0
237.0
237.0
238.0
239.0
239.0
239.0
238.0
239.0
239.0
239.0
239.0
239.0
239.0
239.0
239.0
239.0
240.0
240.0
240.0
240.0
240.0
240.0
239.0
239.0
239.0
239.0
239.0
239.0
239.0
238.0
238.0
238.0
238.0
239.0
239.0
239.0
238.0
238.0
237.0
237.0
237.0
237.0
237.0
237.0
237.0
237.0
237.0
237.0
237.0
236.0
235.0
235.0
234.0
235.0
235.0
236.0
237.0
237.0
237.0
238.0
239.0
239.0
239.0
239.0
240.0
240.0
241.0
241.0
241.0
241.0
241.0
240.0
240.0
239.0
239.0
239.0
239.0
239.0
239.0
238.0
237.0
237.0
237.0
237.0
237.0
236.0
236.0
235.0
235.0
235.0
235.0
235.0
235.0
235.0
235.0
235.0
234.0
233.0
232.0
232.0
231.0
232.0
238.0
237.0
236.0
235.0
234.0
233.0
250.0
249.0
248.0
247.0
246.0
245.0
244.0
243.0
242.0
241.0
240.0
239.0
267.0
266.0
265.0
264.0
263.0
262.0
261.0
260.0
259.0
258.0
257.0
256.0
255.0
254.0
253.0
252.0
251.0
289.0
288.0
287.0
286.0
285.0
284.0
283.0
282.0
281.0
280.0
279.0
278.0
277.0
276.0
275.0
274.0
273.0
272.0
271.0
270.0
269.0
268.0
309.0
308.0
307.0
306.0
305.0
304.0
303.0
302.0
301.0
300.0
299.0
298.0
297.0
296.0
295.0
294.0
293.0
292.0
291.0
290.0
310.0
326.0
325.0
324.0
323.0
322.0
321.0
320.0
319.0
318.0
317.0
316.0
315.0
314.0
313.0
312.0
311.0
328.0
327.0
310.0
309.0
308.0
307.0
306.0
305.0
304.0
303.0
302.0
301.0
300.0
299.0
298.0
297.0
296.0
295.0
294.0
293.0
292.0
291.0
290.0
289.0
288.0
287.0
286.0
285.0
284.0
283.0
282.0
281.0
280.0
279.0
278.0
277.0
276.0
275.0
274.0
273.0
272.0
271.0
270.0
269.0
268.0
267.0
266.0
265.0
264.0
263.0
262.0
261.0
260.0
259.0
258.0
257.0
256.0
255.0
254.0
253.0
252.0
251.0
250.0
249.0
248.0
247.0
246.0
245.0
244.0
243.0
242.0
241.0
240.0
239.0
238.0
237.0
236.0
235.0
234.0
233.0
232.0
231.0
230.0
229.0
228.0
227.0
226.0
225.0
224.0
223.0
222.0
221.0
220.0
219.0
218.0
217.0
216.0
215.0
214.0
213.0
212.0
211.0
210.0
209.0
208.0
207.0
206.0
205.0
204.0
203.0
202.0
201.0
200.0
199.0
198.0
197.0
196.0
195.0
194.0
193.0
192.0
191.0
190.0
189.0
188.0
187.0
186.0
185.0
184.0
183.0
182.0
181.0
180.0
179.0
178.0
177.0
176.0
175.0
174.0
173.0
162.0
161.0
160.0
159.0
158.0
157.0
156.0
155.0
154.0
153.0
173.0
172.0
171.0
170.0
169.0
168.0
167.0
166.0
165.0
164.0
163.0
152.0
151.0
150.0
149.0
177.0
176.0
175.0
174.0
197.0
196.0
195.0
194.0
193.0
192.0
191.0
190.0
189.0
188.0
187.0
186.0
185.0
184.0
183.0
182.0
181.0
180.0
179.0
178.0
213.0
212.0
211.0
210.0
209.0
208.0
207.0
206.0
205.0
204.0
203.0
202.0
201.0
200.0
199.0
198.0
223.0
222.0
221.0
220.0
219.0
218.0
217.0
216.0
215.0
214.0
229.0
228.0
227.0
226.0
225.0
224.0
231.0
230.0
232.0
233.0
234.0
234.0
235.0
235.0
235.0
235.0
235.0
235.0
236.0
237.0
237.0
237.0
237.0
237.0
236.0
237.0
237.0
237.0
238.0
238.0
239.0
239.0
239.0
239.0
240.0
240.0
240.0
240.0
241.0
242.0
242.0
242.0
243.0
244.0
245.0
245.0
245.0
247.0
246.0
248.0
249.0
251.0
250.0
252.0
253.0
254.0
255.0
256.0
258.0
257.0
260.0
259.0
261.0
262.0
264.0
263.0
265.0
266.0
267.0
268.0
268.0
268.0
267.0
266.0
265.0
265.0
264.0
263.0
262.0
261.0
260.0
259.0
258.0
257.0
256.0
255.0
254.0
253.0
252.0
251.0
250.0
249.0
248.0
247.0
246.0
245.0
245.0
245.0
244.0
243.0
242.0
241.0
240.0
239.0
239.0
239.0
239.0
239.0
239.0
239.0
239.0
239.0
238.0
239.0
239.0
239.0
239.0
239.0
239.0
239.0
239.0
239.0
239.0
239.0
239.0
240.0
240.0
239.0
239.0
238.0
239.0
239.0
239.0
240.0
240.0
240.0
239.0
239.0
239.0
239.0
239.0
240.0
240.0
240.0
240.0
240.0
240.0
240.0
239.0
239.0
239.0
239.0
239.0
238.0
238.0
237.0
237.0
237.0
237.0
238.0
238.0
238.0
238.0
237.0
237.0
237.0
237.0
237.0
237.0
237.0
236.0
236.0
236.0
236.0
237.0
238.0
239.0
239.0
239.0
239.0
239.0
240.0
241.0
241.0
241.0
